-3093
-3076
-3008
-2956
-2793
-2659
-2622
-2566
-2514
-2535
-2519
-2554
-2588
-2622
-2655
-2604
-2465
-2282
-2076
-1838
-1419
-1280
-1154
-1132
-1042
-1045
-1050
-1031
-1050
-980
-783
-384
276
344
250
-36
-481
-473
-449
-408
-275
-147
-32
80
248
307
365
419
556
613
695
795
956
1014
1111
1219
1401
1423
1314
1121
653
401
272
202
172
267
299
355
477
487
523
510
463
437
366
263
9
-63
-79
-27
212
307
381
426
538
544
576
635
731
810
860
941
1040
1073
1093
1055
906
880
830
757
925
1212
1513
1649
1406
1072
788
680
766
792
792
813
817
825
833
853
918
940
971
1007
1154
1227
1303
1379
1470
1531
1563
1573
1374
1182
982
721
395
286
200
166
56
26
11
-26
-28
-24
-48
-55
-113
-116
-117
-81
-50
-91
-109
-156
-218
-210
-218
-225
-210
-219
-238
-243
-267
-229
-177
-115
29
68
127
210
461
668
929
1275
2521
3096
3417
3551
3098
2832
2710
2629
2515
2451
2416
2419
2380
2369
2364
2324
2298
2281
2274
2300
2330
2354
2391
2435
2516
2549
2504
2383
2033
1786
1561
1378
1100
1004
947
891
816
790
756
726
644
651
617
600
537
503
505
472
438
378
344
325
316
346
346
340
279
245
209
199
238
248
296
369
515
561
575
543
435
377
334
296
489
839
1136
1231
964
588
269
148
143
148
132
134
130
143
153
157
149
145
176
182
277
346
404
492
646
681
695
677
525
389
223
49
-292
-394
-466
-535
-624
-651
-674
-683
-688
-681
-678
-681
-703
-725
-786
-828
-854
-903
-894
-880
-905
-886
-875
-917
-907
-922
-965
-938
-925
-905
-865
-827
-789
-771
-757
-795
-846
-870
-911
-909
-827
-576
-177
99
56
-180
-531
-725
-674
-650
-628
-622
-549
-490
-413
-370
-243
-163
-104
-17
168
229
309
407
630
736
811
840
733
638
507
370
85
-47
-156
-233
-327
-349
-348
-353
-349
-329
-337
-333
-371
-388
-406
-430
-469
-503
-511
-526
-526
-494
-502
-536
-573
-631
-662
-669
-651
-677
-634
-592
-583
-518
-520
-549
-680
-752
-834
-885
-834
-579
-180
70
3
-277
-668
-920
-882
-869
-877
-882
-894
-892
-879
-822
-729
-678
-619
-590
-509
-456
-360
-282
-99
-21
-6
5
-92
-236
-413
-581
-964
-1116
-1216
-1312
-1411
-1394
-1393
-1407
-1391
-1395
-1417
-1429
-1469
-1482
-1461
-1448
-1436
-1459
-1499
-1545
-1632
-1662
-1682
-1665
-1640
-1613
-1606
-1604
-1615
-1615
-1572
-1559
-1485
-1437
-1444
-1451
-1538
-1596
-1649
-1686
-1346
-968
-699
-640
-962
-1310
-1538
-1548
-1526
-1535
-1504
-1492
-1440
-1420
-1427
-1431
-1365
-1308
-1254
-1185
-1047
-995
-936
-876
-781
-722
-697
-704
-920
-1125
-1313
-1488
-1794
-1886
-1989
-2079
-2128
-2130
-2127
-2085
-2079
-2066
-2044
-2095
-2104
-2120
-2140
-2108
-2119
-2131
-2104
-2099
-2093
-2071
-2092
-2097
-2098
-2066
-2039
-2016
-1973
-2006
-1968
-1933
-1818
-1766
-1799
-1846
-1920
-1958
-1966
-1899
-1392
-1021
-864
-886
-1343
-1635
-1703
-1640
-1548
-1526
-1488
-1470
-1356
-1291
-1268
-1195
-1057
-977
-907
-834
-676
-565
-400
-299
-90
-24
-16
-1
-187
-325
-485
-670
-866
-929
-946
-926
-879
-858
-861
-827
-782
-770
-706
-678
-604
-580
-568
-537
-522
-503
-475
-459
-413
-369
-350
-331
-261
-245
-229
-217
-158
-127
-90
-31
83
129
188
181
98
72
23
24
222
575
966
1152
1053
732
427
313
392
453
473
524
592
615
678
706
804
856
916
1020
1220
1330
1401
1472
1635
1724
1808
1848
1804
1664
1502
1305
935
843
789
772
784
786
760
744
776
788
820
835
848
864
878
926
914
905
897
895
909
914
937
955
1008
1020
997
965
980
1008
1027
1084
1168
1202
1241
1217
1081
1037
979
954
1072
1358
1753
1953
1889
1611
1245
1102
1131
1170
1219
1228
1272
1294
1311
1331
1400
1445
1483
1540
1699
1771
1867
1950
2151
2228
2291
2330
2247
2098
1941
1750
1432
1321
1204
1145
1054
1058
1076
1066
1075
1100
1112
1108
1090
1070
1065
1087
1104
1081
1087
1084
1080
1087
1059
1059
1062
1087
1083
1063
1093
1131
1199
1258
1271
1265
1220
1169
1095
1034
1036
1070
1550
1926
2039
1982
1519
1167
1059
1127
1169
1209
1256
1261
1365
1383
1387
1432
1498
1560
1640
1698
1888
1950
2029
2119
2237
2287
2275
2230
1993
1802
1630
1438
1124
1024
954
922
871
888
866
844
814
795
809
814
843
831
790
770
701
658
645
601
519
499
469
453
441
434
419
393
392
424
473
541
562
535
496
435
365
356
332
381
959
1227
1284
1160
506
211
145
212
241
217
209
206
172
184
199
193
255
303
334
382
520
598
670
751
903
915
897
816
485
282
95
-65
-319
-384
-431
-468
-498
-504
-536
-513
-510
-516
-520
-576
-583
-570
-554
-541
-586
-587
-587
-614
-641
-678
-704
-691
-676
-645
-672
-677
-627
-649
-610
-576
-559
-557
-550
-579
-737
-806
-906
-993
-1058
-925
-574
-276
-228
-395
-764
-1068
-1153
-1149
-1156
-1149
-1090
-1052
-1000
-974
-960
-950
-890
-818
-651
-566
-498
-417
-194
-129
-70
-39
-103
-224
-373
-529
-886
-954
-1055
-1136
-1235
-1276
-1296
-1308
-1282
-1274
-1253
-1253
-1289
-1303
-1309
-1309
-1339
-1368
-1403
-1425
-1402
-1403
-1399
-1421
-1495
-1522
-1517
-1535
-1517
-1501
-1515
-1489
-1460
-1440
-1409
-1361
-1325
-1317
-1333
-1366
-1463
-1514
-1536
-1519
-916
-612
-563
-629
-1249
-1528
-1576
-1524
-1487
-1486
-1495
-1524
-1477
-1430
-1351
-1310
-1349
-1403
-1446
-1446
-1344
-1250
-1178
-1089
-931
-894
-912
-972
-1251
-1456
-1629
-1783
-1995
-2038
-2069
-2116
-2133
-2121
-2120
-2099
-2039
-2058
-2034
-2029
-2059
-2029
-2023
-2006
-2016
-2019
-2033
-2033
-2024
-2036
-2057
-2069
-2128
-2115
-2077
-2049
-1971
-1969
-1942
-1905
-1838
-1823
-1863
-1918
-1972
-1990
-1975
-1959
-1436
-1113
-1050
-1069
-1640
-1959
-2016
-2031
-2013
-2032
-2054
-2033
-1986
-1946
-1919
-1904
-1881
-1870
-1830
-1778
-1629
-1525
-1451
-1372
-1267
-1257
-1259
-1314
-1580
-1783
-1995
-2197
-2448
-2512
-2533
-2550
-2623
-2648
-2679
-2709
-2718
-2710
-2714
-2717
-2733
-2760
-2784
-2773
-2782
-2777
-2796
-2841
-2878
-2898
-2873
-2856
-2940
-2984
-3057
-3072
-2988
-2951
-2869
-2822
-2810
-2807
-2841
-2895
-2927
-2912
-2935
-2919
-2563
-2166
-1917
-1887
-2213
-2588
-2785
-2784
-2746
-2760
-2767
-2753
-2673
-2624
-2583
-2544
-2505
-2469
-2425
-2373
-2228
-2140
-2060
-1976
-1803
-1738
-1691
-1726
-1915
-2096
-2292
-2456
-2718
-2825
-2883
-2915
-3000
-3001
-2999
-3003
-2988
-2946
-2923
-2898
-2850
-2883
-2906
-2918
-2922
-2913
-2883
-2834
-2834
-2811
-2848
-2876
-2861
-2870
-2823
-2805
-2712
-2660
-2613
-2584
-2603
-2606
-2643
-2696
-2728
-2724
-2712
-2644
-2087
-1780
-1679
-1709
-2204
-2469
-2511
-2449
-2414
-2444
-2461
-2447
-2380
-2313
-2276
-2260
-2157
-2107
-2040
-1954
-1793
-1690
-1582
-1452
-1247
-1202
-1213
-1294
-1570
-1721
-1864
-2017
-2185
-2257
-2306
-2309
-2350
-2364
-2341
-2324
-2273
-2245
-2229
-2238
-2212
-2185
-2179
-2191
-2204
-2203
-2188
-2166
-2137
-2103
-2064
-2046
-2052
-2112
-2138
-2083
-2015
-1980
-2009
-2082
-2193
-2244
-2263
-2266
-1911
-1547
-1354
-1338
-1716
-2050
-2210
-2207
-2098
-2060
-2027
-1986
-1941
-1893
-1873
-1836
-1720
-1656
-1591
-1537
-1390
-1309
-1190
-1044
-838
-769
-764
-812
-1011
-1207
-1385
-1541
-1774
-1817
-1835
-1910
-2006
-2021
-2023
-1995
-1951
-1929
-1900
-1911
-1890
-1907
-1947
-1942
-1960
-1957
-1952
-1930
-1915
-1905
-1916
-1931
-1915
-1892
-1843
-1793
-1784
-1811
-1844
-1871
-1930
-1955
-1941
-1803
-1100
-960
-988
-1143
-1795
-1861
-1856
-1835
-1774
-1773
-1716
-1695
-1628
-1598
-1559
-1503
-1406
-1355
-1296
-1208
-1056
-938
-820
-723
-575
-559
-623
-716
-1015
-1201
-1351
-1495
-1665
-1700
-1708
-1688
-1654
-1644
-1625
-1622
-1593
-1584
-1559
-1548
-1510
-1490
-1490
-1470
-1453
-1474
-1478
-1470
-1463
-1432
-1387
-1371
-1290
-1268
-1259
-1247
-1213
-1193
-1217
-1243
-1319
-1357
-1330
-1147
-439
-290
-271
-427
-1067
-1173
-1172
-1134
-1066
-1035
-1024
-988
-960
-931
-909
-909
-776
-692
-585
-507
-383
-305
-261
-184
-68
-82
-75
-198
-602
-796
-997
-1070
-1166
-1162
-1152
-1135
-1183
-1239
-1275
-1371
-1341
-1329
-1320
-1254
-1264
-1274
-1322
-1332
-1281
-1202
-1184
-1160
-1210
-1228
-1182
-1181
-1055
-1059
-978
-961
-1071
-1102
-1215
-1251
-1174
-1016
-679
-377
-222
-346
-613
-849
-944
-890
-871
-922
-881
-890
-853
-764
-680
-620
-592
-582
-496
-472
-392
-311
-92
57
165
246
58
-73
-285
-484
-757
-895
-952
-1009
-1054
-1094
-1092
-1098
-957
-914
-957
-945
-1077
-1113
-1076
-1061
-1120
-1117
-1070
-1122
-1167
-1164
-1253
-1250
-1209
-1238
-1254
-1284
-1207
-1142
-1141
-1144
-1257
-1369
-1411
-1461
-1416
-1301
-1024
-644
-455
-541
-739
-1059
-1332
-1333
-1355
-1369
-1183
-1175
-1219
-1201
-1224
-1173
-1113
-1038
-884
-831
-743
-706
-551
-410
-336
-247
-337
-454
-556
-710
-1053
-1232
-1394
-1483
-1617
-1624
-1566
-1589
-1678
-1717
-1802
-1824
-1865
-1914
-2010
-2093
-2195
-2184
-2083
-2029
-1868
-1835
-1878
-1858
-1903
-1937
-1887
-1870
-1726
-1626
-1621
-1614
-1728
-1781
-1800
-1814
-1533
-1329
-1013
-671
133
491
488
413
-36
-324
-411
-419
-473
-484
-495
-546
-589
-512
-392
-305
-164
-193
-182
-79
183
285
396
487
501
536
444
315
-12
-230
-399
-594
-836
-887
-864
-800
-3093
-3076
-3008
-2956
-2793
-2659
-2622
-2566
-2514
-2535
-2519
-2554
-2588
-2622
-2655
-2604
-2465
-2282
-2076
-1838
-1419
-1280
-1154
-1132
-1042
-1045
-1050
-1031
-1050
-980
-783
-384
276
344
250
-36
-481
-473
-449
-408
-275
-147
-32
80
248
307
365
419
556
613
695
795
956
1014
1111
1219
1401
1423
1314
1121
653
401
272
202
172
267
299
355
477
487
523
510
463
437
366
263
9
-63
-79
-27
212
307
381
426
538
544
576
635
731
810
860
941
1040
1073
1093
1055
906
880
830
757
925
1212
1513
1649
1406
1072
788
680
766
792
792
813
817
825
833
853
918
940
971
1007
1154
1227
1303
1379
1470
1531
1563
1573
1374
1182
982
721
395
286
200
166
56
26
11
-26
-28
-24
-48
-55
-113
-116
-117
-81
-50
-91
-109
-156
-218
-210
-218
-225
-210
-219
-238
-243
-267
-229
-177
-115
29
68
127
210
461
668
929
1275
2521
3096
3417
3551
3098
2832
2710
2629
2515
2451
2416
2419
2380
2369
2364
2324
2298
2281
2274
2300
2330
2354
2391
2435
2516
2549
2504
2383
2033
1786
1561
1378
1100
1004
947
891
816
790
756
726
644
651
617
600
537
503
505
472
438
378
344
325
316
346
346
340
279
245
209
199
238
248
296
369
515
561
575
543
435
377
334
296
489
839
1136
1231
964
588
269
148
143
148
132
134
130
143
153
157
149
145
176
182
277
346
404
492
646
681
695
677
525
389
223
49
-292
-394
-466
-535
-624
-651
-674
-683
-688
-681
-678
-681
-703
-725
-786
-828
-854
-903
-894
-880
-905
-886
-875
-917
-907
-922
-965
-938
-925
-905
-865
-827
-789
-771
-757
-795
-846
-870
-911
-909
-827
-576
-177
99
56
-180
-531
-725
-674
-650
-628
-622
-549
-490
-413
-370
-243
-163
-104
-17
168
229
309
407
630
736
811
840
733
638
507
370
85
-47
-156
-233
-327
-349
-348
-353
-349
-329
-337
-333
-371
-388
-406
-430
-469
-503
-511
-526
-526
-494
-502
-536
-573
-631
-662
-669
-651
-677
-634
-592
-583
-518
-520
-549
-680
-752
-834
-885
-834
-579
-180
70
3
-277
-668
-920
-882
-869
-877
-882
-894
-892
-879
-822
-729
-678
-619
-590
-509
-456
-360
-282
-99
-21
-6
5
-92
-236
-413
-581
-964
-1116
-1216
-1312
-1411
-1394
-1393
-1407
-1391
-1395
-1417
-1429
-1469
-1482
-1461
-1448
-1436
-1459
-1499
-1545
-1632
-1662
-1682
-1665
-1640
-1613
-1606
-1604
-1615
-1615
-1572
-1559
-1485
-1437
-1444
-1451
-1538
-1596
-1649
-1686
-1346
-968
-699
-640
-962
-1310
-1538
-1548
-1526
-1535
-1504
-1492
-1440
-1420
-1427
-1431
-1365
-1308
-1254
-1185
-1047
-995
-936
-876
-781
-722
-697
-704
-920
-1125
-1313
-1488
-1794
-1886
-1989
-2079
-2128
-2130
-2127
-2085
-2079
-2066
-2044
-2095
-2104
-2120
-2140
-2108
-2119
-2131
-2104
-2099
-2093
-2071
-2092
-2097
-2098
-2066
-2039
-2016
-1973
-2006
-1968
-1933
-1818
-1766
-1799
-1846
-1920
-1958
-1966
-1899
-1392
-1021
-864
-886
-1343
-1635
-1703
-1640
-1548
-1526
-1488
-1470
-1356
-1291
-1268
-1195
-1057
-977
-907
-834
-676
-565
-400
-299
-90
-24
-16
-1
-187
-325
-485
-670
-866
-929
-946
-926
-879
-858
-861
-827
-782
-770
-706
-678
-604
-580
-568
-537
-522
-503
-475
-459
-413
-369
-350
-331
-261
-245
-229
-217
-158
-127
-90
-31
83
129
188
181
98
72
23
24
222
575
966
1152
1053
732
427
313
392
453
473
524
592
615
678
706
804
856
916
1020
1220
1330
1401
1472
1635
1724
1808
1848
1804
1664
1502
1305
935
843
789
772
784
786
760
744
776
788
820
835
848
864
878
926
914
905
897
895
909
914
937
955
1008
1020
997
965
980
1008
1027
1084
1168
1202
1241
1217
1081
1037
979
954
1072
1358
1753
1953
1889
1611
1245
1102
1131
1170
1219
1228
1272
1294
1311
1331
1400
1445
1483
1540
1699
1771
1867
1950
2151
2228
2291
2330
2247
2098
1941
1750
1432
1321
1204
1145
1054
1058
1076
1066
1075
1100
1112
1108
1090
1070
1065
1087
1104
1081
1087
1084
1080
1087
1059
1059
1062
1087
1083
1063
1093
1131
1199
1258
1271
1265
1220
1169
1095
1034
1036
1070
1550
1926
2039
1982
1519
1167
1059
1127
1169
1209
1256
1261
1365
1383
1387
1432
1498
1560
1640
1698
1888
1950
2029
2119
2237
2287
2275
2230
1993
1802
1630
1438
1124
1024
954
922
871
888
866
844
814
795
809
814
843
831
790
770
701
658
645
601
519
499
469
453
441
434
419
393
392
424
473
541
562
535
496
435
365
356
332
381
959
1227
1284
1160
506
211
145
212
241
217
209
206
172
184
199
193
255
303
334
382
520
598
670
751
903
915
897
816
485
282
95
-65
-319
-384
-431
-468
-498
-504
-536
-513
-510
-516
-520
-576
-583
-570
-554
-541
-586
-587
-587
-614
-641
-678
-704
-691
-676
-645
-672
-677
-627
-649
-610
-576
-559
-557
-550
-579
-737
-806
-906
-993
-1058
-925
-574
-276
-228
-395
-764
-1068
-1153
-1149
-1156
-1149
-1090
-1052
-1000
-974
-960
-950
-890
-818
-651
-566
-498
-417
-194
-129
-70
-39
-103
-224
-373
-529
-886
-954
-1055
-1136
-1235
-1276
-1296
-1308
-1282
-1274
-1253
-1253
-1289
-1303
-1309
-1309
-1339
-1368
-1403
-1425
-1402
-1403
-1399
-1421
-1495
-1522
-1517
-1535
-1517
-1501
-1515
-1489
-1460
-1440
-1409
-1361
-1325
-1317
-1333
-1366
-1463
-1514
-1536
-1519
-916
-612
-563
-629
-1249
-1528
-1576
-1524
-1487
-1486
-1495
-1524
-1477
-1430
-1351
-1310
-1349
-1403
-1446
-1446
-1344
-1250
-1178
-1089
-931
-894
-912
-972
-1251
-1456
-1629
-1783
-1995
-2038
-2069
-2116
-2133
-2121
-2120
-2099
-2039
-2058
-2034
-2029
-2059
-2029
-2023
-2006
-2016
-2019
-2033
-2033
-2024
-2036
-2057
-2069
-2128
-2115
-2077
-2049
-1971
-1969
-1942
-1905
-1838
-1823
-1863
-1918
-1972
-1990
-1975
-1959
-1436
-1113
-1050
-1069
-1640
-1959
-2016
-2031
-2013
-2032
-2054
-2033
-1986
-1946
-1919
-1904
-1881
-1870
-1830
-1778
-1629
-1525
-1451
-1372
-1267
-1257
-1259
-1314
-1580
-1783
-1995
-2197
-2448
-2512
-2533
-2550
-2623
-2648
-2679
-2709
-2718
-2710
-2714
-2717
-2733
-2760
-2784
-2773
-2782
-2777
-2796
-2841
-2878
-2898
-2873
-2856
-2940
-2984
-3057
-3072
-2988
-2951
-2869
-2822
-2810
-2807
-2841
-2895
-2927
-2912
-2935
-2919
-2563
-2166
-1917
-1887
-2213
-2588
-2785
-2784
-2746
-2760
-2767
-2753
-2673
-2624
-2583
-2544
-2505
-2469
-2425
-2373
-2228
-2140
-2060
-1976
-1803
-1738
-1691
-1726
-1915
-2096
-2292
-2456
-2718
-2825
-2883
-2915
-3000
-3001
-2999
-3003
-2988
-2946
-2923
-2898
-2850
-2883
-2906
-2918
-2922
-2913
-2883
-2834
-2834
-2811
-2848
-2876
-2861
-2870
-2823
-2805
-2712
-2660
-2613
-2584
-2603
-2606
-2643
-2696
-2728
-2724
-2712
-2644
-2087
-1780
-1679
-1709
-2204
-2469
-2511
-2449
-2414
-2444
-2461
-2447
-2380
-2313
-2276
-2260
-2157
-2107
-2040
-1954
-1793
-1690
-1582
-1452
-1247
-1202
-1213
-1294
-1570
-1721
-1864
-2017
-2185
-2257
-2306
-2309
-2350
-2364
-2341
-2324
-2273
-2245
-2229
-2238
-2212
-2185
-2179
-2191
-2204
-2203
-2188
-2166
-2137
-2103
-2064
-2046
-2052
-2112
-2138
-2083
-2015
-1980
-2009
-2082
-2193
-2244
-2263
-2266
-1911
-1547
-1354
-1338
-1716
-2050
-2210
-2207
-2098
-2060
-2027
-1986
-1941
-1893
-1873
-1836
-1720
-1656
-1591
-1537
-1390
-1309
-1190
-1044
-838
-769
-764
-812
-1011
-1207
-1385
-1541
-1774
-1817
-1835
-1910
-2006
-2021
-2023
-1995
-1951
-1929
-1900
-1911
-1890
-1907
-1947
-1942
-1960
-1957
-1952
-1930
-1915
-1905
-1916
-1931
-1915
-1892
-1843
-1793
-1784
-1811
-1844
-1871
-1930
-1955
-1941
-1803
-1100
-960
-988
-1143
-1795
-1861
-1856
-1835
-1774
-1773
-1716
-1695
-1628
-1598
-1559
-1503
-1406
-1355
-1296
-1208
-1056
-938
-820
-723
-575
-559
-623
-716
-1015
-1201
-1351
-1495
-1665
-1700
-1708
-1688
-1654
-1644
-1625
-1622
-1593
-1584
-1559
-1548
-1510
-1490
-1490
-1470
-1453
-1474
-1478
-1470
-1463
-1432
-1387
-1371
-1290
-1268
-1259
-1247
-1213
-1193
-1217
-1243
-1319
-1357
-1330
-1147
-439
-290
-271
-427
-1067
-1173
-1172
-1134
-1066
-1035
-1024
-988
-960
-931
-909
-909
-776
-692
-585
-507
-383
-305
-261
-184
-68
-82
-75
-198
-602
-796
-997
-1070
-1166
-1162
-1152
-1135
-1183
-1239
-1275
-1371
-1341
-1329
-1320
-1254
-1264
-1274
-1322
-1332
-1281
-1202
-1184
-1160
-1210
-1228
-1182
-1181
-1055
-1059
-978
-961
-1071
-1102
-1215
-1251
-1174
-1016
-679
-377
-222
-346
-613
-849
-944
-890
-871
-922
-881
-890
-853
-764
-680
-620
-592
-582
-496
-472
-392
-311
-92
57
165
246
58
-73
-285
-484
-757
-895
-952
-1009
-1054
-1094
-1092
-1098
-957
-914
-957
-945
-1077
-1113
-1076
-1061
-1120
-1117
-1070
-1122
-1167
-1164
-1253
-1250
-1209
-1238
-1254
-1284
-1207
-1142
-1141
-1144
-1257
-1369
-1411
-1461
-1416
-1301
-1024
-644
-455
-541
-739
-1059
-1332
-1333
-1355
-1369
-1183
-1175
-1219
-1201
-1224
-1173
-1113
-1038
-884
-831
-743
-706
-551
-410
-336
-247
-337
-454
-556
-710
-1053
-1232
-1394
-1483
-1617
-1624
-1566
-1589
-1678
-1717
-1802
-1824
-1865
-1914
-2010
-2093
-2195
-2184
-2083
-2029
-1868
-1835
-1878
-1858
-1903
-1937
-1887
-1870
-1726
-1626
-1621
-1614
-1728
-1781
-1800
-1814
-1533
-1329
-1013
-671
133
491
488
413
-36
-324
-411
-419
-473
-484
-495
-546
-589
-512
-392
-305
-164
-193
-182
-79
183
285
396
487
501
536
444
315
-12
-230
-399
-594
-836
-887
-864
-800
-3093
-3076
-3008
-2956
-2793
-2659
-2622
-2566
-2514
-2535
-2519
-2554
-2588
-2622
-2655
-2604
-2465
-2282
-2076
-1838
-1419
-1280
-1154
-1132
-1042
-1045
-1050
-1031
-1050
-980
-783
-384
276
344
250
-36
-481
-473
-449
-408
-275
-147
-32
80
248
307
365
419
556
613
695
795
956
1014
1111
1219
1401
1423
1314
1121
653
401
272
202
172
267
299
355
477
487
523
510
463
437
366
263
9
-63
-79
-27
212
307
381
426
538
544
576
635
731
810
860
941
1040
1073
1093
1055
906
880
830
757
925
1212
1513
1649
1406
1072
788
680
766
792
792
813
817
825
833
853
918
940
971
1007
1154
1227
1303
1379
1470
1531
1563
1573
1374
1182
982
721
395
286
200
166
56
26
11
-26
-28
-24
-48
-55
-113
-116
-117
-81
-50
-91
-109
-156
-218
-210
-218
-225
-210
-219
-238
-243
-267
-229
-177
-115
29
68
127
210
461
668
929
1275
2521
3096
3417
3551
3098
2832
2710
2629
2515
2451
2416
2419
2380
2369
2364
2324
2298
2281
2274
2300
2330
2354
2391
2435
2516
2549
2504
2383
2033
1786
1561
1378
1100
1004
947
891
816
790
756
726
644
651
617
600
537
503
505
472
438
378
344
325
316
346
346
340
279
245
209
199
238
248
296
369
515
561
575
543
435
377
334
296
489
839
1136
1231
964
588
269
148
143
148
132
134
130
143
153
157
149
145
176
182
277
346
404
492
646
681
695
677
525
389
223
49
-292
-394
-466
-535
-624
-651
-674
-683
-688
-681
-678
-681
-703
-725
-786
-828
-854
-903
-894
-880
-905
-886
-875
-917
-907
-922
-965
-938
-925
-905
-865
-827
-789
-771
-757
-795
-846
-870
-911
-909
-827
-576
-177
99
56
-180
-531
-725
-674
-650
-628
-622
-549
-490
-413
-370
-243
-163
-104
-17
168
229
309
407
630
736
811
840
733
638
507
370
85
-47
-156
-233
-327
-349
-348
-353
-349
-329
-337
-333
-371
-388
-406
-430
-469
-503
-511
-526
-526
-494
-502
-536
-573
-631
-662
-669
-651
-677
-634
-592
-583
-518
-520
-549
-680
-752
-834
-885
-834
-579
-180
70
3
-277
-668
-920
-882
-869
-877
-882
-894
-892
-879
-822
-729
-678
-619
-590
-509
-456
-360
-282
-99
-21
-6
5
-92
-236
-413
-581
-964
-1116
-1216
-1312
-1411
-1394
-1393
-1407
-1391
-1395
-1417
-1429
-1469
-1482
-1461
-1448
-1436
-1459
-1499
-1545
-1632
-1662
-1682
-1665
-1640
-1613
-1606
-1604
-1615
-1615
-1572
-1559
-1485
-1437
-1444
-1451
-1538
-1596
-1649
-1686
-1346
-968
-699
-640
-962
-1310
-1538
-1548
-1526
-1535
-1504
-1492
-1440
-1420
-1427
-1431
-1365
-1308
-1254
-1185
-1047
-995
-936
-876
-781
-722
-697
-704
-920
-1125
-1313
-1488
-1794
-1886
-1989
-2079
-2128
-2130
-2127
-2085
-2079
-2066
-2044
-2095
-2104
-2120
-2140
-2108
-2119
-2131
-2104
-2099
-2093
-2071
-2092
-2097
-2098
-2066
-2039
-2016
-1973
-2006
-1968
-1933
-1818
-1766
-1799
-1846
-1920
-1958
-1966
-1899
-1392
-1021
-864
-886
-1343
-1635
-1703
-1640
-1548
-1526
-1488
-1470
-1356
-1291
-1268
-1195
-1057
-977
-907
-834
-676
-565
-400
-299
-90
-24
-16
-1
-187
-325
-485
-670
-866
-929
-946
-926
-879
-858
-861
-827
-782
-770
-706
-678
-604
-580
-568
-537
-522
-503
-475
-459
-413
-369
-350
-331
-261
-245
-229
-217
-158
-127
-90
-31
83
129
188
181
98
72
23
24
222
575
966
1152
1053
732
427
313
392
453
473
524
592
615
678
706
804
856
916
1020
1220
1330
1401
1472
1635
1724
1808
1848
1804
1664
1502
1305
935
843
789
772
784
786
760
744
776
788
820
835
848
864
878
926
914
905
897
895
909
914
937
955
1008
1020
997
965
980
1008
1027
1084
1168
1202
1241
1217
1081
1037
979
954
1072
1358
1753
1953
1889
1611
1245
1102
1131
1170
1219
1228
1272
1294
1311
1331
1400
1445
1483
1540
1699
1771
1867
1950
2151
2228
2291
2330
2247
2098
1941
1750
1432
1321
1204
1145
1054
1058
1076
1066
1075
1100
1112
1108
1090
1070
1065
1087
1104
1081
1087
1084
1080
1087
1059
1059
1062
1087
1083
1063
1093
1131
1199
1258
1271
1265
1220
1169
1095
1034
1036
1070
1550
1926
2039
1982
1519
1167
1059
1127
1169
1209
1256
1261
1365
1383
1387
1432
1498
1560
1640
1698
1888
1950
2029
2119
2237
2287
2275
2230
1993
1802
1630
1438
1124
1024
954
922
871
888
866
844
814
795
809
814
843
831
790
770
701
658
645
601
519
499
469
453
441
434
419
393
392
424
473
541
562
535
496
435
365
356
332
381
959
1227
1284
1160
506
211
145
212
241
217
209
206
172
184
199
193
255
303
334
382
520
598
670
751
903
915
897
816
485
282
95
-65
-319
-384
-431
-468
-498
-504
-536
-513
-510
-516
-520
-576
-583
-570
-554
-541
-586
-587
-587
-614
-641
-678
-704
-691
-676
-645
-672
-677
-627
-649
-610
-576
-559
-557
-550
-579
-737
-806
-906
-993
-1058
-925
-574
-276
-228
-395
-764
-1068
-1153
-1149
-1156
-1149
-1090
-1052
-1000
-974
-960
-950
-890
-818
-651
-566
-498
-417
-194
-129
-70
-39
-103
-224
-373
-529
-886
-954
-1055
-1136
-1235
-1276
-1296
-1308
-1282
-1274
-1253
-1253
-1289
-1303
-1309
-1309
-1339
-1368
-1403
-1425
-1402
-1403
-1399
-1421
-1495
-1522
-1517
-1535
-1517
-1501
-1515
-1489
-1460
-1440
-1409
-1361
-1325
-1317
-1333
-1366
-1463
-1514
-1536
-1519
-916
-612
-563
-629
-1249
-1528
-1576
-1524
-1487
-1486
-1495
-1524
-1477
-1430
-1351
-1310
-1349
-1403
-1446
-1446
-1344
-1250
-1178
-1089
-931
-894
-912
-972
-1251
-1456
-1629
-1783
-1995
-2038
-2069
-2116
-2133
-2121
-2120
-2099
-2039
-2058
-2034
-2029
-2059
-2029
-2023
-2006
-2016
-2019
-2033
-2033
-2024
-2036
-2057
-2069
-2128
-2115
-2077
-2049
-1971
-1969
-1942
-1905
-1838
-1823
-1863
-1918
-1972
-1990
-1975
-1959
-1436
-1113
-1050
-1069
-1640
-1959
-2016
-2031
-2013
-2032
-2054
-2033
-1986
-1946
-1919
-1904
-1881
-1870
-1830
-1778
-1629
-1525
-1451
-1372
-1267
-1257
-1259
-1314
-1580
-1783
-1995
-2197
-2448
-2512
-2533
-2550
-2623
-2648
-2679
-2709
-2718
-2710
-2714
-2717
-2733
-2760
-2784
-2773
-2782
-2777
-2796
-2841
-2878
-2898
-2873
-2856
-2940
-2984
-3057
-3072
-2988
-2951
-2869
-2822
-2810
-2807
-2841
-2895
-2927
-2912
-2935
-2919
-2563
-2166
-1917
-1887
-2213
-2588
-2785
-2784
-2746
-2760
-2767
-2753
-2673
-2624
-2583
-2544
-2505
-2469
-2425
-2373
-2228
-2140
-2060
-1976
-1803
-1738
-1691
-1726
-1915
-2096
-2292
-2456
-2718
-2825
-2883
-2915
-3000
-3001
-2999
-3003
-2988
-2946
-2923
-2898
-2850
-2883
-2906
-2918
-2922
-2913
-2883
-2834
-2834
-2811
-2848
-2876
-2861
-2870
-2823
-2805
-2712
-2660
-2613
-2584
-2603
-2606
-2643
-2696
-2728
-2724
-2712
-2644
-2087
-1780
-1679
-1709
-2204
-2469
-2511
-2449
-2414
-2444
-2461
-2447
-2380
-2313
-2276
-2260
-2157
-2107
-2040
-1954
-1793
-1690
-1582
-1452
-1247
-1202
-1213
-1294
-1570
-1721
-1864
-2017
-2185
-2257
-2306
-2309
-2350
-2364
-2341
-2324
-2273
-2245
-2229
-2238
-2212
-2185
-2179
-2191
-2204
-2203
-2188
-2166
-2137
-2103
-2064
-2046
-2052
-2112
-2138
-2083
-2015
-1980
-2009
-2082
-2193
-2244
-2263
-2266
-1911
-1547
-1354
-1338
-1716
-2050
-2210
-2207
-2098
-2060
-2027
-1986
-1941
-1893
-1873
-1836
-1720
-1656
-1591
-1537
-1390
-1309
-1190
-1044
-838
-769
-764
-812
-1011
-1207
-1385
-1541
-1774
-1817
-1835
-1910
-2006
-2021
-2023
-1995
-1951
-1929
-1900
-1911
-1890
-1907
-1947
-1942
-1960
-1957
-1952
-1930
-1915
-1905
-1916
-1931
-1915
-1892
-1843
-1793
-1784
-1811
-1844
-1871
-1930
-1955
-1941
-1803
-1100
-960
-988
-1143
-1795
-1861
-1856
-1835
-1774
-1773
-1716
-1695
-1628
-1598
-1559
-1503
-1406
-1355
-1296
-1208
-1056
-938
-820
-723
-575
-559
-623
-716
-1015
-1201
-1351
-1495
-1665
-1700
-1708
-1688
-1654
-1644
-1625
-1622
-1593
-1584
-1559
-1548
-1510
-1490
-1490
-1470
-1453
-1474
-1478
-1470
-1463
-1432
-1387
-1371
-1290
-1268
-1259
-1247
-1213
-1193
-1217
-1243
-1319
-1357
-1330
-1147
-439
-290
-271
-427
-1067
-1173
-1172
-1134
-1066
-1035
-1024
-988
-960
-931
-909
-909
-776
-692
-585
-507
-383
-305
-261
-184
-68
-82
-75
-198
-602
-796
-997
-1070
-1166
-1162
-1152
-1135
-1183
-1239
-1275
-1371
-1341
-1329
-1320
-1254
-1264
-1274
-1322
-1332
-1281
-1202
-1184
-1160
-1210
-1228
-1182
-1181
-1055
-1059
-978
-961
-1071
-1102
-1215
-1251
-1174
-1016
-679
-377
-222
-346
-613
-849
-944
-890
-871
-922
-881
-890
-853
-764
-680
-620
-592
-582
-496
-472
-392
-311
-92
57
165
246
58
-73
-285
-484
-757
-895
-952
-1009
-1054
-1094
-1092
-1098
-957
-914
-957
-945
-1077
-1113
-1076
-1061
-1120
-1117
-1070
-1122
-1167
-1164
-1253
-1250
-1209
-1238
-1254
-1284
-1207
-1142
-1141
-1144
-1257
-1369
-1411
-1461
-1416
-1301
-1024
-644
-455
-541
-739
-1059
-1332
-1333
-1355
-1369
-1183
-1175
-1219
-1201
-1224
-1173
-1113
-1038
-884
-831
-743
-706
-551
-410
-336
-247
-337
-454
-556
-710
-1053
-1232
-1394
-1483
-1617
-1624
-1566
-1589
-1678
-1717
-1802
-1824
-1865
-1914
-2010
-2093
-2195
-2184
-2083
-2029
-1868
-1835
-1878
-1858
-1903
-1937
-1887
-1870
-1726
-1626
-1621
-1614
-1728
-1781
-1800
-1814
-1533
-1329
-1013
-671
133
491
488
413
-36
-324
-411
-419
-473
-484
-495
-546
-589
-512
-392
-305
-164
-193
-182
-79
183
285
396
487
501
536
444
315
-12
-230
-399
-594
-836
-887
-864
-800
-3093
-3076
-3008
-2956
-2793
-2659
-2622
-2566
-2514
-2535
-2519
-2554
-2588
-2622
-2655
-2604
-2465
-2282
-2076
-1838
-1419
-1280
-1154
-1132
-1042
-1045
-1050
-1031
-1050
-980
-783
-384
276
344
250
-36
-481
-473
-449
-408
-275
-147
-32
80
248
307
365
419
556
613
695
795
956
1014
1111
1219
1401
1423
1314
1121
653
401
272
202
172
267
299
355
477
487
523
510
463
437
366
263
9
-63
-79
-27
212
307
381
426
538
544
576
635
731
810
860
941
1040
1073
1093
1055
906
880
830
757
925
1212
1513
1649
1406
1072
788
680
766
792
792
813
817
825
833
853
918
940
971
1007
1154
1227
1303
1379
1470
1531
1563
1573
1374
1182
982
721
395
286
200
166
56
26
11
-26
-28
-24
-48
-55
-113
-116
-117
-81
-50
-91
-109
-156
-218
-210
-218
-225
-210
-219
-238
-243
-267
-229
-177
-115
29
68
127
210
461
668
929
1275
2521
3096
3417
3551
3098
2832
2710
2629
2515
2451
2416
2419
2380
2369
2364
2324
2298
2281
2274
2300
2330
2354
2391
2435
2516
2549
2504
2383
2033
1786
1561
1378
1100
1004
947
891
816
790
756
726
644
651
617
600
537
503
505
472
438
378
344
325
316
346
346
340
279
245
209
199
238
248
296
369
515
561
575
543
435
377
334
296
489
839
1136
1231
964
588
269
148
143
148
132
134
130
143
153
157
149
145
176
182
277
346
404
492
646
681
695
677
525
389
223
49
-292
-394
-466
-535
-624
-651
-674
-683
-688
-681
-678
-681
-703
-725
-786
-828
-854
-903
-894
-880
-905
-886
-875
-917
-907
-922
-965
-938
-925
-905
-865
-827
-789
-771
-757
-795
-846
-870
-911
-909
-827
-576
-177
99
56
-180
-531
-725
-674
-650
-628
-622
-549
-490
-413
-370
-243
-163
-104
-17
168
229
309
407
630
736
811
840
733
638
507
370
85
-47
-156
-233
-327
-349
-348
-353
-349
-329
-337
-333
-371
-388
-406
-430
-469
-503
-511
-526
-526
-494
-502
-536
-573
-631
-662
-669
-651
-677
-634
-592
-583
-518
-520
-549
-680
-752
-834
-885
-834
-579
-180
70
3
-277
-668
-920
-882
-869
-877
-882
-894
-892
-879
-822
-729
-678
-619
-590
-509
-456
-360
-282
-99
-21
-6
5
-92
-236
-413
-581
-964
-1116
-1216
-1312
-1411
-1394
-1393
-1407
-1391
-1395
-1417
-1429
-1469
-1482
-1461
-1448
-1436
-1459
-1499
-1545
-1632
-1662
-1682
-1665
-1640
-1613
-1606
-1604
-1615
-1615
-1572
-1559
-1485
-1437
-1444
-1451
-1538
-1596
-1649
-1686
-1346
-968
-699
-640
-962
-1310
-1538
-1548
-1526
-1535
-1504
-1492
-1440
-1420
-1427
-1431
-1365
-1308
-1254
-1185
-1047
-995
-936
-876
-781
-722
-697
-704
-920
-1125
-1313
-1488
-1794
-1886
-1989
-2079
-2128
-2130
-2127
-2085
-2079
-2066
-2044
-2095
-2104
-2120
-2140
-2108
-2119
-2131
-2104
-2099
-2093
-2071
-2092
-2097
-2098
-2066
-2039
-2016
-1973
-2006
-1968
-1933
-1818
-1766
-1799
-1846
-1920
-1958
-1966
-1899
-1392
-1021
-864
-886
-1343
-1635
-1703
-1640
-1548
-1526
-1488
-1470
-1356
-1291
-1268
-1195
-1057
-977
-907
-834
-676
-565
-400
-299
-90
-24
-16
-1
-187
-325
-485
-670
-866
-929
-946
-926
-879
-858
-861
-827
-782
-770
-706
-678
-604
-580
-568
-537
-522
-503
-475
-459
-413
-369
-350
-331
-261
-245
-229
-217
-158
-127
-90
-31
83
129
188
181
98
72
23
24
222
575
966
1152
1053
732
427
313
392
453
473
524
592
615
678
706
804
856
916
1020
1220
1330
1401
1472
1635
1724
1808
1848
1804
1664
1502
1305
935
843
789
772
784
786
760
744
776
788
820
835
848
864
878
926
914
905
897
895
909
914
937
955
1008
1020
997
965
980
1008
1027
1084
1168
1202
1241
1217
1081
1037
979
954
1072
1358
1753
1953
1889
1611
1245
1102
1131
1170
1219
1228
1272
1294
1311
1331
1400
1445
1483
1540
1699
1771
1867
1950
2151
2228
2291
2330
2247
2098
1941
1750
1432
1321
1204
1145
1054
1058
1076
1066
1075
1100
1112
1108
1090
1070
1065
1087
1104
1081
1087
1084
1080
1087
1059
1059
1062
1087
1083
1063
1093
1131
1199
1258
1271
1265
1220
1169
1095
1034
1036
1070
1550
1926
2039
1982
1519
1167
1059
1127
1169
1209
1256
1261
1365
1383
1387
1432
1498
1560
1640
1698
1888
1950
2029
2119
2237
2287
2275
2230
1993
1802
1630
1438
1124
1024
954
922
871
888
866
844
814
795
809
814
843
831
790
770
701
658
645
601
519
499
469
453
441
434
419
393
392
424
473
541
562
535
496
435
365
356
332
381
959
1227
1284
1160
506
211
145
212
241
217
209
206
172
184
199
193
255
303
334
382
520
598
670
751
903
915
897
816
485
282
95
-65
-319
-384
-431
-468
-498
-504
-536
-513
-510
-516
-520
-576
-583
-570
-554
-541
-586
-587
-587
-614
-641
-678
-704
-691
-676
-645
-672
-677
-627
-649
-610
-576
-559
-557
-550
-579
-737
-806
-906
-993
-1058
-925
-574
-276
-228
-395
-764
-1068
-1153
-1149
-1156
-1149
-1090
-1052
-1000
-974
-960
-950
-890
-818
-651
-566
-498
-417
-194
-129
-70
-39
-103
-224
-373
-529
-886
-954
-1055
-1136
-1235
-1276
-1296
-1308
-1282
-1274
-1253
-1253
-1289
-1303
-1309
-1309
-1339
-1368
-1403
-1425
-1402
-1403
-1399
-1421
-1495
-1522
-1517
-1535
-1517
-1501
-1515
-1489
-1460
-1440
-1409
-1361
-1325
-1317
-1333
-1366
-1463
-1514
-1536
-1519
-916
-612
-563
-629
-1249
-1528
-1576
-1524
-1487
-1486
-1495
-1524
-1477
-1430
-1351
-1310
-1349
-1403
-1446
-1446
-1344
-1250
-1178
-1089
-931
-894
-912
-972
-1251
-1456
-1629
-1783
-1995
-2038
-2069
-2116
-2133
-2121
-2120
-2099
-2039
-2058
-2034
-2029
-2059
-2029
-2023
-2006
-2016
-2019
-2033
-2033
-2024
-2036
-2057
-2069
-2128
-2115
-2077
-2049
-1971
-1969
-1942
-1905
-1838
-1823
-1863
-1918
-1972
-1990
-1975
-1959
-1436
-1113
-1050
-1069
-1640
-1959
-2016
-2031
-2013
-2032
-2054
-2033
-1986
-1946
-1919
-1904
-1881
-1870
-1830
-1778
-1629
-1525
-1451
-1372
-1267
-1257
-1259
-1314
-1580
-1783
-1995
-2197
-2448
-2512
-2533
-2550
-2623
-2648
-2679
-2709
-2718
-2710
-2714
-2717
-2733
-2760
-2784
-2773
-2782
-2777
-2796
-2841
-2878
-2898
-2873
-2856
-2940
-2984
-3057
-3072
-2988
-2951
-2869
-2822
-2810
-2807
-2841
-2895
-2927
-2912
-2935
-2919
-2563
-2166
-1917
-1887
-2213
-2588
-2785
-2784
-2746
-2760
-2767
-2753
-2673
-2624
-2583
-2544
-2505
-2469
-2425
-2373
-2228
-2140
-2060
-1976
-1803
-1738
-1691
-1726
-1915
-2096
-2292
-2456
-2718
-2825
-2883
-2915
-3000
-3001
-2999
-3003
-2988
-2946
-2923
-2898
-2850
-2883
-2906
-2918
-2922
-2913
-2883
-2834
-2834
-2811
-2848
-2876
-2861
-2870
-2823
-2805
-2712
-2660
-2613
-2584
-2603
-2606
-2643
-2696
-2728
-2724
-2712
-2644
-2087
-1780
-1679
-1709
-2204
-2469
-2511
-2449
-2414
-2444
-2461
-2447
-2380
-2313
-2276
-2260
-2157
-2107
-2040
-1954
-1793
-1690
-1582
-1452
-1247
-1202
-1213
-1294
-1570
-1721
-1864
-2017
-2185
-2257
-2306
-2309
-2350
-2364
-2341
-2324
-2273
-2245
-2229
-2238
-2212
-2185
-2179
-2191
-2204
-2203
-2188
-2166
-2137
-2103
-2064
-2046
-2052
-2112
-2138
-2083
-2015
-1980
-2009
-2082
-2193
-2244
-2263
-2266
-1911
-1547
-1354
-1338
-1716
-2050
-2210
-2207
-2098
-2060
-2027
-1986
-1941
-1893
-1873
-1836
-1720
-1656
-1591
-1537
-1390
-1309
-1190
-1044
-838
-769
-764
-812
-1011
-1207
-1385
-1541
-1774
-1817
-1835
-1910
-2006
-2021
-2023
-1995
-1951
-1929
-1900
-1911
-1890
-1907
-1947
-1942
-1960
-1957
-1952
-1930
-1915
-1905
-1916
-1931
-1915
-1892
-1843
-1793
-1784
-1811
-1844
-1871
-1930
-1955
-1941
-1803
-1100
-960
-988
-1143
-1795
-1861
-1856
-1835
-1774
-1773
-1716
-1695
-1628
-1598
-1559
-1503
-1406
-1355
-1296
-1208
-1056
-938
-820
-723
-575
-559
-623
-716
-1015
-1201
-1351
-1495
-1665
-1700
-1708
-1688
-1654
-1644
-1625
-1622
-1593
-1584
-1559
-1548
-1510
-1490
-1490
-1470
-1453
-1474
-1478
-1470
-1463
-1432
-1387
-1371
-1290
-1268
-1259
-1247
-1213
-1193
-1217
-1243
-1319
-1357
-1330
-1147
-439
-290
-271
-427
-1067
-1173
-1172
-1134
-1066
-1035
-1024
-988
-960
-931
-909
-909
-776
-692
-585
-507
-383
-305
-261
-184
-68
-82
-75
-198
-602
-796
-997
-1070
-1166
-1162
-1152
-1135
-1183
-1239
-1275
-1371
-1341
-1329
-1320
-1254
-1264
-1274
-1322
-1332
-1281
-1202
-1184
-1160
-1210
-1228
-1182
-1181
-1055
-1059
-978
-961
-1071
-1102
-1215
-1251
-1174
-1016
-679
-377
-222
-346
-613
-849
-944
-890
-871
-922
-881
-890
-853
-764
-680
-620
-592
-582
-496
-472
-392
-311
-92
57
165
246
58
-73
-285
-484
-757
-895
-952
-1009
-1054
-1094
-1092
-1098
-957
-914
-957
-945
-1077
-1113
-1076
-1061
-1120
-1117
-1070
-1122
-1167
-1164
-1253
-1250
-1209
-1238
-1254
-1284
-1207
-1142
-1141
-1144
-1257
-1369
-1411
-1461
-1416
-1301
-1024
-644
-455
-541
-739
-1059
-1332
-1333
-1355
-1369
-1183
-1175
-1219
-1201
-1224
-1173
-1113
-1038
-884
-831
-743
-706
-551
-410
-336
-247
-337
-454
-556
-710
-1053
-1232
-1394
-1483
-1617
-1624
-1566
-1589
-1678
-1717
-1802
-1824
-1865
-1914
-2010
-2093
-2195
-2184
-2083
-2029
-1868
-1835
-1878
-1858
-1903
-1937
-1887
-1870
-1726
-1626
-1621
-1614
-1728
-1781
-1800
-1814
-1533
-1329
-1013
-671
133
491
488
413
-36
-324
-411
-419
-473
-484
-495
-546
-589
-512
-392
-305
-164
-193
-182
-79
183
285
396
487
501
536
444
315
-12
-230
-399
-594
-836
-887
-864
-800
-3093
-3076
-3008
-2956
-2793
-2659
-2622
-2566
-2514
-2535
-2519
-2554
-2588
-2622
-2655
-2604
-2465
-2282
-2076
-1838
-1419
-1280
-1154
-1132
-1042
-1045
-1050
-1031
-1050
-980
-783
-384
276
344
250
-36
-481
-473
-449
-408
-275
-147
-32
80
248
307
365
419
556
613
695
795
956
1014
1111
1219
1401
1423
1314
1121
653
401
272
202
172
267
299
355
477
487
523
510
463
437
366
263
9
-63
-79
-27
212
307
381
426
538
544
576
635
731
810
860
941
1040
1073
1093
1055
906
880
830
757
925
1212
1513
1649
1406
1072
788
680
766
792
792
813
817
825
833
853
918
940
971
1007
1154
1227
1303
1379
1470
1531
1563
1573
1374
1182
982
721
395
286
200
166
56
26
11
-26
-28
-24
-48
-55
-113
-116
-117
-81
-50
-91
-109
-156
-218
-210
-218
-225
-210
-219
-238
-243
-267
-229
-177
-115
29
68
127
210
461
668
929
1275
2521
3096
3417
3551
3098
2832
2710
2629
2515
2451
2416
2419
2380
2369
2364
2324
2298
2281
2274
2300
2330
2354
2391
2435
2516
2549
2504
2383
2033
1786
1561
1378
1100
1004
947
891
816
790
756
726
644
651
617
600
537
503
505
472
438
378
344
325
316
346
346
340
279
245
209
199
238
248
296
369
515
561
575
543
435
377
334
296
489
839
1136
1231
964
588
269
148
143
148
132
134
130
143
153
157
149
145
176
182
277
346
404
492
646
681
695
677
525
389
223
49
-292
-394
-466
-535
-624
-651
-674
-683
-688
-681
-678
-681
-703
-725
-786
-828
-854
-903
-894
-880
-905
-886
-875
-917
-907
-922
-965
-938
-925
-905
-865
-827
-789
-771
-757
-795
-846
-870
-911
-909
-827
-576
-177
99
56
-180
-531
-725
-674
-650
-628
-622
-549
-490
-413
-370
-243
-163
-104
-17
168
229
309
407
630
736
811
840
733
638
507
370
85
-47
-156
-233
-327
-349
-348
-353
-349
-329
-337
-333
-371
-388
-406
-430
-469
-503
-511
-526
-526
-494
-502
-536
-573
-631
-662
-669
-651
-677
-634
-592
-583
-518
-520
-549
-680
-752
-834
-885
-834
-579
-180
70
3
-277
-668
-920
-882
-869
-877
-882
-894
-892
-879
-822
-729
-678
-619
-590
-509
-456
-360
-282
-99
-21
-6
5
-92
-236
-413
-581
-964
-1116
-1216
-1312
-1411
-1394
-1393
-1407
-1391
-1395
-1417
-1429
-1469
-1482
-1461
-1448
-1436
-1459
-1499
-1545
-1632
-1662
-1682
-1665
-1640
-1613
-1606
-1604
-1615
-1615
-1572
-1559
-1485
-1437
-1444
-1451
-1538
-1596
-1649
-1686
-1346
-968
-699
-640
-962
-1310
-1538
-1548
-1526
-1535
-1504
-1492
-1440
-1420
-1427
-1431
-1365
-1308
-1254
-1185
-1047
-995
-936
-876
-781
-722
-697
-704
-920
-1125
-1313
-1488
-1794
-1886
-1989
-2079
-2128
-2130
-2127
-2085
-2079
-2066
-2044
-2095
-2104
-2120
-2140
-2108
-2119
-2131
-2104
-2099
-2093
-2071
-2092
-2097
-2098
-2066
-2039
-2016
-1973
-2006
-1968
-1933
-1818
-1766
-1799
-1846
-1920
-1958
-1966
-1899
-1392
-1021
-864
-886
-1343
-1635
-1703
-1640
-1548
-1526
-1488
-1470
-1356
-1291
-1268
-1195
-1057
-977
-907
-834
-676
-565
-400
-299
-90
-24
-16
-1
-187
-325
-485
-670
-866
-929
-946
-926
-879
-858
-861
-827
-782
-770
-706
-678
-604
-580
-568
-537
-522
-503
-475
-459
-413
-369
-350
-331
-261
-245
-229
-217
-158
-127
-90
-31
83
129
188
181
98
72
23
24
222
575
966
1152
1053
732
427
313
392
453
473
524
592
615
678
706
804
856
916
1020
1220
1330
1401
1472
1635
1724
1808
1848
1804
1664
1502
1305
935
843
789
772
784
786
760
744
776
788
820
835
848
864
878
926
914
905
897
895
909
914
937
955
1008
1020
997
965
980
1008
1027
1084
1168
1202
1241
1217
1081
1037
979
954
1072
1358
1753
1953
1889
1611
1245
1102
1131
1170
1219
1228
1272
1294
1311
1331
1400
1445
1483
1540
1699
1771
1867
1950
2151
2228
2291
2330
2247
2098
1941
1750
1432
1321
1204
1145
1054
1058
1076
1066
1075
1100
1112
1108
1090
1070
1065
1087
1104
1081
1087
1084
1080
1087
1059
1059
1062
1087
1083
1063
1093
1131
1199
1258
1271
1265
1220
1169
1095
1034
1036
1070
1550
1926
2039
1982
1519
1167
1059
1127
1169
1209
1256
1261
1365
1383
1387
1432
1498
1560
1640
1698
1888
1950
2029
2119
2237
2287
2275
2230
1993
1802
1630
1438
1124
1024
954
922
871
888
866
844
814
795
809
814
843
831
790
770
701
658
645
601
519
499
469
453
441
434
419
393
392
424
473
541
562
535
496
435
365
356
332
381
959
1227
1284
1160
506
211
145
212
241
217
209
206
172
184
199
193
255
303
334
382
520
598
670
751
903
915
897
816
485
282
95
-65
-319
-384
-431
-468
-498
-504
-536
-513
-510
-516
-520
-576
-583
-570
-554
-541
-586
-587
-587
-614
-641
-678
-704
-691
-676
-645
-672
-677
-627
-649
-610
-576
-559
-557
-550
-579
-737
-806
-906
-993
-1058
-925
-574
-276
-228
-395
-764
-1068
-1153
-1149
-1156
-1149
-1090
-1052
-1000
-974
-960
-950
-890
-818
-651
-566
-498
-417
-194
-129
-70
-39
-103
-224
-373
-529
-886
-954
-1055
-1136
-1235
-1276
-1296
-1308
-1282
-1274
-1253
-1253
-1289
-1303
-1309
-1309
-1339
-1368
-1403
-1425
-1402
-1403
-1399
-1421
-1495
-1522
-1517
-1535
-1517
-1501
-1515
-1489
-1460
-1440
-1409
-1361
-1325
-1317
-1333
-1366
-1463
-1514
-1536
-1519
-916
-612
-563
-629
-1249
-1528
-1576
-1524
-1487
-1486
-1495
-1524
-1477
-1430
-1351
-1310
-1349
-1403
-1446
-1446
-1344
-1250
-1178
-1089
-931
-894
-912
-972
-1251
-1456
-1629
-1783
-1995
-2038
-2069
-2116
-2133
-2121
-2120
-2099
-2039
-2058
-2034
-2029
-2059
-2029
-2023
-2006
-2016
-2019
-2033
-2033
-2024
-2036
-2057
-2069
-2128
-2115
-2077
-2049
-1971
-1969
-1942
-1905
-1838
-1823
-1863
-1918
-1972
-1990
-1975
-1959
-1436
-1113
-1050
-1069
-1640
-1959
-2016
-2031
-2013
-2032
-2054
-2033
-1986
-1946
-1919
-1904
-1881
-1870
-1830
-1778
-1629
-1525
-1451
-1372
-1267
-1257
-1259
-1314
-1580
-1783
-1995
-2197
-2448
-2512
-2533
-2550
-2623
-2648
-2679
-2709
-2718
-2710
-2714
-2717
-2733
-2760
-2784
-2773
-2782
-2777
-2796
-2841
-2878
-2898
-2873
-2856
-2940
-2984
-3057
-3072
-2988
-2951
-2869
-2822
-2810
-2807
-2841
-2895
-2927
-2912
-2935
-2919
-2563
-2166
-1917
-1887
-2213
-2588
-2785
-2784
-2746
-2760
-2767
-2753
-2673
-2624
-2583
-2544
-2505
-2469
-2425
-2373
-2228
-2140
-2060
-1976
-1803
-1738
-1691
-1726
-1915
-2096
-2292
-2456
-2718
-2825
-2883
-2915
-3000
-3001
-2999
-3003
-2988
-2946
-2923
-2898
-2850
-2883
-2906
-2918
-2922
-2913
-2883
-2834
-2834
-2811
-2848
-2876
-2861
-2870
-2823
-2805
-2712
-2660
-2613
-2584
-2603
-2606
-2643
-2696
-2728
-2724
-2712
-2644
-2087
-1780
-1679
-1709
-2204
-2469
-2511
-2449
-2414
-2444
-2461
-2447
-2380
-2313
-2276
-2260
-2157
-2107
-2040
-1954
-1793
-1690
-1582
-1452
-1247
-1202
-1213
-1294
-1570
-1721
-1864
-2017
-2185
-2257
-2306
-2309
-2350
-2364
-2341
-2324
-2273
-2245
-2229
-2238
-2212
-2185
-2179
-2191
-2204
-2203
-2188
-2166
-2137
-2103
-2064
-2046
-2052
-2112
-2138
-2083
-2015
-1980
-2009
-2082
-2193
-2244
-2263
-2266
-1911
-1547
-1354
-1338
-1716
-2050
-2210
-2207
-2098
-2060
-2027
-1986
-1941
-1893
-1873
-1836
-1720
-1656
-1591
-1537
-1390
-1309
-1190
-1044
-838
-769
-764
-812
-1011
-1207
-1385
-1541
-1774
-1817
-1835
-1910
-2006
-2021
-2023
-1995
-1951
-1929
-1900
-1911
-1890
-1907
-1947
-1942
-1960
-1957
-1952
-1930
-1915
-1905
-1916
-1931
-1915
-1892
-1843
-1793
-1784
-1811
-1844
-1871
-1930
-1955
-1941
-1803
-1100
-960
-988
-1143
-1795
-1861
-1856
-1835
-1774
-1773
-1716
-1695
-1628
-1598
-1559
-1503
-1406
-1355
-1296
-1208
-1056
-938
-820
-723
-575
-559
-623
-716
-1015
-1201
-1351
-1495
-1665
-1700
-1708
-1688
-1654
-1644
-1625
-1622
-1593
-1584
-1559
-1548
-1510
-1490
-1490
-1470
-1453
-1474
-1478
-1470
-1463
-1432
-1387
-1371
-1290
-1268
-1259
-1247
-1213
-1193
-1217
-1243
-1319
-1357
-1330
-1147
-439
-290
-271
-427
-1067
-1173
-1172
-1134
-1066
-1035
-1024
-988
-960
-931
-909
-909
-776
-692
-585
-507
-383
-305
-261
-184
-68
-82
-75
-198
-602
-796
-997
-1070
-1166
-1162
-1152
-1135
-1183
-1239
-1275
-1371
-1341
-1329
-1320
-1254
-1264
-1274
-1322
-1332
-1281
-1202
-1184
-1160
-1210
-1228
-1182
-1181
-1055
-1059
-978
-961
-1071
-1102
-1215
-1251
-1174
-1016
-679
-377
-222
-346
-613
-849
-944
-890
-871
-922
-881
-890
-853
-764
-680
-620
-592
-582
-496
-472
-392
-311
-92
57
165
246
58
-73
-285
-484
-757
-895
-952
-1009
-1054
-1094
-1092
-1098
-957
-914
-957
-945
-1077
-1113
-1076
-1061
-1120
-1117
-1070
-1122
-1167
-1164
-1253
-1250
-1209
-1238
-1254
-1284
-1207
-1142
-1141
-1144
-1257
-1369
-1411
-1461
-1416
-1301
-1024
-644
-455
-541
-739
-1059
-1332
-1333
-1355
-1369
-1183
-1175
-1219
-1201
-1224
-1173
-1113
-1038
-884
-831
-743
-706
-551
-410
-336
-247
-337
-454
-556
-710
-1053
-1232
-1394
-1483
-1617
-1624
-1566
-1589
-1678
-1717
-1802
-1824
-1865
-1914
-2010
-2093
-2195
-2184
-2083
-2029
-1868
-1835
-1878
-1858
-1903
-1937
-1887
-1870
-1726
-1626
-1621
-1614
-1728
-1781
-1800
-1814
-1533
-1329
-1013
-671
133
491
488
413
-36
-324
-411
-419
-473
-484
-495
-546
-589
-512
-392
-305
-164
-193
-182
-79
183
285
396
487
501
536
444
315
-12
-230
-399
-594
-836
-887
-864
-800
